Time,Velocity,Setpoint
0.0,5.42989083136372,10.0
0.016666666666666666,5.429880341169458,10.0
0.03333333333333333,5.4299866779845685,10.0
0.05,5.431555479597605,10.0
0.06666666666666667,5.436279052404456,10.0
0.08333333333333333,5.445575994699668,10.0
0.1,5.459499713374566,10.0
0.11666666666666667,5.477713556280339,10.0
0.13333333333333333,5.498830875674627,10.0
0.15,5.509698051645387,10.0
0.16666666666666666,5.507659084783756,10.0
0.18333333333333332,5.505924818928765,10.0
0.2,5.50542366165288,10.0
0.21666666666666667,5.504513374375381,10.0
0.23333333333333334,5.503781425130027,10.0
0.25,5.502983196491125,10.0
0.26666666666666666,5.50221739138209,10.0
0.2833333333333333,5.5014391864359276,10.0
0.3,5.5006695661804335,10.0
0.31666666666666665,5.49989803850214,10.0
0.3333333333333333,5.499129372764324,10.0
0.35,5.49835879837034,10.0
0.36666666666666664,5.497590610628414,10.0
0.38333333333333336,5.49682242177347,10.0
0.4,5.496053280350202,10.0
0.4166666666666667,5.49528556938885,10.0
0.43333333333333335,5.494517857218205,10.0
0.45,5.493750622519905,10.0
0.4666666666666667,5.49298195646947,10.0
0.48333333333333334,5.492214722011828,10.0
0.5,5.491447010653304,10.0
0.5166666666666667,5.490677867292664,10.0
0.5333333333333333,5.489910632450108,10.0
0.55,5.489142920634301,10.0
0.5666666666666667,5.488376160911632,10.0
0.5833333333333334,5.487606542822138,10.0
0.6,5.486840262593443,10.0
0.6166666666666667,5.48607207505618,10.0
0.6333333333333333,5.485305794833493,10.0
0.65,5.508038648274014,10.0
0.6666666666666666,5.642756817219352,10.0
0.6833333333333333,5.684138392043701,10.0
0.7,5.777389629780254,10.0
0.7166666666666667,5.832370195108447,10.0
0.7333333333333333,5.907524416437098,10.0
0.75,5.96725525825826,10.0
0.7666666666666667,6.033705245963682,10.0
0.7833333333333333,6.094147056022071,10.0
0.8,6.156180078315365,10.0
0.8166666666666667,6.2158198436073935,10.0
0.8333333333333334,6.2753995267802205,10.0
0.85,6.333874848798727,10.0
0.8666666666666667,6.391908618260344,10.0
0.8833333333333333,6.449300083959859,10.0
0.9,6.506242364943975,10.0
0.9166666666666666,6.562733557044652,10.0
0.9333333333333333,6.61885090853765,10.0
0.95,6.674620631232868,10.0
0.9666666666666667,6.730089954836261,10.0
0.9833333333333333,6.785286049441894,10.0
1.0,6.840236105845528,10.0
1.0166666666666666,6.894967283747702,10.0
1.0333333333333334,6.9494991436733,10.0
1.05,7.0038478972990195,10.0
1.0666666666666667,7.0580316645822725,10.0
1.0833333333333333,7.112063796942433,10.0
1.1,7.165957167687954,10.0
1.1166666666666667,7.219719407611281,10.0
1.1333333333333333,7.273364817631425,10.0
1.15,7.326895790928736,10.0
1.1666666666666667,7.380321380274067,10.0
1.1833333333333333,7.43363968338274,10.0
1.2,7.486845927847082,10.0
1.2166666666666666,7.539935823472571,10.0
1.2333333333333334,7.592907939442378,10.0
1.25,7.645755600335578,10.0
1.2666666666666666,7.698480713220423,10.0
1.2833333333333334,7.7510785098464305,10.0
1.3,7.803547082778539,10.0
1.3166666666666667,7.8558873888927625,10.0
1.3333333333333333,7.908096562663119,10.0
1.35,7.960175076904701,10.0
1.3666666666666667,8.012120081613926,10.0
1.3833333333333333,8.063933477234746,10.0
1.4,8.115612402728908,10.0
1.4166666666666667,8.167158769201269,10.0
1.4333333333333333,8.218570666750331,10.0
1.45,8.269850002335756,10.0
1.4666666666666666,8.32099677649885,10.0
1.4833333333333334,8.3720100349327,10.0
1.5,8.422890734687824,10.0
1.5166666666666666,8.473639824999278,10.0
1.5333333333333334,8.524258259266006,10.0
1.55,8.574744134631247,10.0
1.5666666666666667,8.6251012621506,10.0
1.5833333333333333,8.675329644399252,10.0
1.6,8.72543118549672,10.0
1.6166666666666667,8.77540588658649,10.0
1.6333333333333333,8.825256610288772,10.0
1.65,8.874984310513737,10.0
1.6666666666666667,8.924591847222514,10.0
1.6833333333333333,8.97408207934724,10.0
1.7,9.02345596206159,10.0
1.7166666666666666,9.072718266564001,10.0
1.7333333333333334,9.121870897539909,10.0
1.75,9.170921480240937,10.0
1.7666666666666666,9.219871930482682,10.0
1.7833333333333334,9.26863450540352,10.0
1.8,9.317159625821438,10.0
1.8166666666666667,9.365465388386662,10.0
1.8333333333333333,9.413564201714584,10.0
1.85,9.461400755426236,10.0
1.8666666666666667,9.508989351727882,10.0
1.8833333333333333,9.556350020978742,10.0
1.9,9.603495157968288,10.0
1.9166666666666667,9.65043620668045,10.0
1.9333333333333333,9.69718460831935,10.0
1.95,9.743748952521527,10.0
1.9666666666666666,9.790135914081931,10.0
1.9833333333333334,9.83635407343733,10.0
2.0,9.881711060737853,10.0
2.0166666666666666,9.923174175734943,10.0
2.033333333333333,9.957263442253284,10.0
2.05,9.98137722504838,10.0
2.066666666666667,9.994178466058338,10.0
2.0833333333333335,9.995808304723475,10.0
2.1,9.987493176193833,10.0
2.1166666666666667,9.971084169278281,10.0
2.1333333333333333,9.948751861954985,10.0
2.15,9.922642031816943,10.0
2.1666666666666665,9.894925249694003,10.0
2.183333333333333,9.867720594553528,10.0
2.2,9.84296594058275,10.0
2.216666666666667,9.822317830932521,10.0
2.2333333333333334,9.807072314006145,10.0
2.25,9.798114402159925,10.0
2.2666666666666666,9.795739740952635,10.0
2.283333333333333,9.7996774841879,10.0
2.3,9.809185667142378,10.0
2.316666666666667,9.823116061111516,10.0
2.3333333333333335,9.839963755105392,10.0
2.35,9.858076986208456,10.0
2.3666666666666667,9.87580779053915,10.0
2.3833333333333333,9.891693225513665,10.0
2.4,9.904575525481253,10.0
2.4166666666666665,9.913684115975801,10.0
2.433333333333333,9.918654692180288,10.0
2.45,9.91951395801562,10.0
2.466666666666667,9.916622403693601,10.0
2.4833333333333334,9.910596105420513,10.0
2.5,9.902233292208392,10.0
2.5166666666666666,9.892417070146012,10.0
2.533333333333333,9.882045805968836,10.0
2.55,9.871969228951366,10.0
2.566666666666667,9.862931210974784,10.0
2.5833333333333335,9.85552875201863,10.0
2.6,9.850187195395963,10.0
2.6166666666666667,9.847140190275933,10.0
2.6333333333333333,9.846429700455756,10.0
2.65,9.847912672911189,10.0
2.6666666666666665,9.851288697732494,10.0
2.683333333333333,9.85612766838641,10.0
2.7,9.861914595703258,10.0
2.716666666666667,9.868100160486774,10.0
2.7333333333333334,9.87414362508469,10.0
2.75,9.879567199063594,10.0
2.7666666666666666,9.883990364096775,10.0
2.783333333333333,9.887149904942888,10.0
2.8,9.888912303357401,10.0
2.816666666666667,9.889269933812699,10.0
2.8333333333333335,9.88833055935575,10.0
2.85,9.886295408380823,10.0
2.8666666666666667,9.883428647560427,10.0
2.8833333333333333,9.880038317530243,10.0
2.9,9.876437225396852,10.0
2.9166666666666665,9.872927685893096,10.0
2.933333333333333,9.869773865679006,10.0
2.95,9.867193209788274,10.0
2.966666666666667,9.865334488784613,10.0
2.9833333333333334,9.864278765681236,10.0
3.0,9.864038437938746,10.0
3.0166666666666666,9.864559146200172,10.0
3.033333333333333,9.865732171065734,10.0
3.05,9.867404925573236,10.0
3.066666666666667,9.86939811528967,10.0
3.0833333333333335,9.871525774176122,10.0
3.1,9.873605749487337,10.0
3.1166666666666667,9.875474008448013,10.0
3.1333333333333333,9.877002756526391,10.0
3.15,9.878100437614915,10.0
3.1666666666666665,9.87872032930497,10.0
3.183333333333333,9.87885765793065,10.0
3.2,9.878547712326371,10.0
3.216666666666667,9.877854387928602,10.0
3.2333333333333334,9.87687019094038,10.0
3.25,9.875700026577409,10.0
3.2666666666666666,9.874452614071195,10.0
3.283333333333333,9.873233810177158,10.0
3.3,9.872138988905158,10.0
3.316666666666667,9.871240624131088,10.0
3.3333333333333335,9.870593076968937,10.0
3.35,9.870223048920515,10.0
3.3666666666666667,9.870137218487313,10.0
3.3833333333333333,9.870314603716439,10.0
3.4,9.870718010781454,10.0
3.4166666666666665,9.871294987652023,10.0
3.433333333333333,9.87198259284991,10.0
3.45,9.872717881201762,10.0
3.466666666666667,9.873436003373259,10.0
3.4833333333333334,9.874083551847198,10.0
3.5,9.874613796308578,10.0
3.5166666666666666,9.874996221757614,10.0
3.533333333333333,9.875214614383196,10.0
3.55,9.875265154826453,10.0
3.566666666666667,9.875162156913076,10.0
3.5833333333333335,9.874924690274863,10.0
3.6,9.874586132231501,10.0
3.6166666666666667,9.874181771533259,10.0
3.6333333333333333,9.87374975412334,10.0
3.65,9.873327275223941,10.0
3.6666666666666665,9.872947711769829,10.0
3.683333333333333,9.872634907600595,10.0
3.7,9.872408886968115,10.0
3.716666666666667,9.87228014186,10.0
3.7333333333333334,9.872248671927158,10.0
3.75,9.872308750159005,10.0
3.7666666666666666,9.872447034403626,10.0
3.783333333333333,9.872646354280254,10.0
3.8,9.872882867814814,10.0
3.816666666666667,9.87313654798728,10.0
3.8333333333333335,9.87338545835677,10.0
3.85,9.87360861928092,10.0
3.8666666666666667,9.873793632986153,10.0
3.8833333333333333,9.873927147812898,10.0
3.9,9.874004395727457,10.0
3.9166666666666665,9.874022515661515,10.0
3.933333333333333,9.8739872277418,10.0
3.95,9.873906162694766,10.0
3.966666666666667,9.87378981314577,10.0
3.9833333333333334,9.873650575316097,10.0
4.0,9.873501800696753,10.0
4.016666666666667,9.873355888553577,10.0
4.033333333333333,9.87322332809408,10.0
4.05,9.87311460980135,10.0
4.066666666666666,9.873035455739618,10.0
4.083333333333333,9.872990634207477,10.0
4.1,9.87297919165563,10.0
4.116666666666666,9.873000172790306,10.0
4.133333333333334,9.873046902997139,10.0
4.15,9.873115562808747,10.0
4.166666666666667,9.87319662619497,10.0
4.183333333333334,9.873285319104399,10.0
4.2,9.873370196024728,10.0
4.216666666666667,9.873448397283584,10.0
4.233333333333333,9.873512293430268,10.0
4.25,9.873559023227905,10.0
4.266666666666667,9.873585724332688,10.0
4.283333333333333,9.87359335615452,10.0
4.3,9.8735819101367,10.0
4.316666666666666,9.873553300910968,10.0
4.333333333333333,9.873513246076605,10.0
4.35,9.87346460389776,10.0
4.366666666666666,9.87341405943488,10.0
4.383333333333334,9.873363515044028,10.0
4.4,9.87331774068479,10.0
4.416666666666667,9.873279594741609,10.0
4.433333333333334,9.873251939401765,10.0
4.45,9.873235728274738,10.0
4.466666666666667,9.873231913657575,10.0
4.483333333333333,9.873238589499419,10.0
4.5,9.873254800361787,10.0
4.516666666666667,9.87327864514008,10.0
4.533333333333333,9.87330630016695,10.0
4.55,9.873336817441276,10.0
4.566666666666666,9.873366379397652,10.0
4.583333333333333,9.873394036723218,10.0
4.6,9.873416925870606,10.0
4.616666666666666,9.873433138116896,10.0
4.633333333333334,9.873442674545416,10.0
4.65,9.873445535252594,10.0
4.666666666666667,9.873440767977,10.0
4.683333333333334,9.873431230910516,10.0
4.7,9.873416925473265,10.0
4.716666666666667,9.873400711048543,10.0
4.733333333333333,9.873383547275097,10.0
4.75,9.873365425427473,10.0
4.766666666666667,9.873349211075112,10.0
4.783333333333333,9.873335860137523,10.0
4.8,9.873325370448727,10.0
4.816666666666666,9.873320603088882,10.0
4.833333333333333,9.873318696845379,10.0
4.85,9.873321559153183,10.0
4.866666666666666,9.873327281217295,10.0
4.883333333333334,9.873334910439626,10.0
4.9,9.873345400609868,10.0
4.916666666666667,9.87335588921551,10.0
4.933333333333334,9.873366382213906,10.0
4.95,9.873374963528999,10.0
4.966666666666667,9.873383544507146,10.0
4.983333333333333,9.873388313660092,10.0
5.0,9.873392129240127,10.0
5.016666666666667,9.873392130239022,10.0
5.033333333333333,9.87339117626881,10.0
5.05,9.873388316380044,10.0
5.066666666666666,9.87338354775654,10.0
5.083333333333333,9.873377825499766,10.0
5.1,9.873371147973097,10.0
5.116666666666666,9.873365428171335,10.0
5.133333333333334,9.873359704301937,10.0
5.15,9.873354936942096,10.0
5.166666666666667,9.873351120194739,10.0
5.183333333333334,9.873350167295621,10.0
5.2,9.87335016958226,10.0
5.216666666666667,9.873351121747222,10.0
5.233333333333333,9.873353031613261,10.0
5.25,9.873355891152993,10.0
5.266666666666667,9.873359705481334,10.0
5.283333333333333,9.873363519833749,10.0
5.3,9.873366381912883,10.0
5.316666666666666,9.87337019627733,10.0
5.333333333333333,9.873372103315134,10.0
5.35,9.873374010196503,10.0
5.366666666666666,9.873374960580366,10.0
5.383333333333334,9.8733749608692,10.0
5.4,9.873373054216469,10.0
5.416666666666667,9.873372101437731,10.0
5.433333333333334,9.873371148683047,10.0
5.45,9.873368289034985,10.0
5.466666666666667,9.873366381479638,10.0
5.483333333333333,9.873363520230923,10.0
5.5,9.873362566248677,10.0
5.516666666666667,9.8733616122544,10.0
5.533333333333333,9.873359706022942,10.0
5.55,9.873359705698002,10.0
5.566666666666666,9.873359701004459,10.0
5.583333333333333,9.873359701377533,10.0
5.6,9.873361609414292,10.0
5.616666666666666,9.873362563793615,10.0
5.633333333333334,9.873363518497948,10.0
5.65,9.873364473430955,10.0
5.666666666666667,9.873366382105528,10.0
5.683333333333334,9.873367335738855,10.0
5.7,9.87336828916742,10.0
5.716666666666667,9.873369242584031,10.0
5.733333333333333,9.873369242235121,10.0
5.75,9.873369240140972,10.0
5.766666666666667,9.873369240863171,10.0
5.783333333333333,9.873368288072287,10.0
5.8,9.873368289131488,10.0
5.816666666666666,9.873366381467623,10.0
5.833333333333333,9.873365427750109,10.0
5.85,9.873364472311662,10.0
5.866666666666666,9.873364472997622,10.0
5.883333333333334,9.873363521951921,10.0
5.9,9.873363520363286,10.0
5.916666666666667,9.873363519978167,10.0
5.933333333333334,9.873363519581014,10.0
5.95,9.873363520664164,10.0
5.966666666666667,9.87336447398449,10.0
5.983333333333333,9.873364469206708,10.0
6.0,9.873365423213007,10.0
6.016666666666667,9.873366377399838,10.0
6.033333333333333,9.873366378242265,10.0
6.05,9.873367332922506,10.0
6.066666666666666,9.873367335473906,10.0
6.083333333333333,9.8733673341982,10.0
6.1,9.873367335233207,10.0
6.116666666666666,9.873367335269313,10.0
6.133333333333334,9.87336733482402,10.0
6.15,9.873367334583321,10.0
6.166666666666667,9.873367334065854,10.0
6.183333333333334,9.873366376978668,10.0
6.2,9.873366377508194,10.0
6.216666666666667,9.873365424536868,10.0
6.233333333333333,9.873364471758103,10.0
6.25,9.873364472889383,10.0
6.266666666666667,9.873364475573203,10.0
6.283333333333333,9.873364474189174,10.0
6.3,9.873364473984589,10.0
6.316666666666666,9.873364473635585,10.0
6.333333333333333,9.873364473202336,10.0
6.35,9.873364474381775,10.0
6.366666666666666,9.873365427726181,10.0
6.383333333333334,9.873366379289427,10.0
6.4,9.873366380071701,10.0
6.416666666666667,9.873366381142734,10.0
6.433333333333334,9.873366380733643,10.0
6.45,9.873366381768664,10.0
6.466666666666667,9.873366381660267,10.0
6.483333333333333,9.873366381251182,10.0
6.5,9.873366379349687,10.0
6.516666666666667,9.873366381720473,10.0
6.533333333333333,9.873366379951445,10.0
6.55,9.873366382562812,10.0
6.566666666666666,9.873366380889937,10.0
6.583333333333333,9.873366377496133,10.0
6.6,9.873366379277236,10.0
6.616666666666666,9.873366380011378,10.0
6.633333333333334,9.87336638113062,10.0
6.65,9.873366380926022,10.0
6.666666666666667,9.873366380709392,10.0
6.683333333333334,9.873366381816608,10.0
6.7,9.873366380095607,10.0
6.716666666666667,9.873366382671097,10.0
6.733333333333333,9.873366380974153,10.0
6.75,9.87336638050479,10.0
6.766666666666667,9.873366381660157,10.0
6.783333333333333,9.873366376798105,10.0
6.8,9.873366377147105,10.0
6.816666666666666,9.873365424211874,10.0
6.833333333333333,9.873365426402195,10.0
6.85,9.87336542770197,10.0
6.866666666666666,9.873365427641827,10.0
6.883333333333334,9.873365425848599,10.0
6.9,9.87336542837594,10.0
6.916666666666667,9.873365426739184,10.0
6.933333333333334,9.87336542788251,10.0
6.95,9.873365427665883,10.0
6.966666666666667,9.873365427256697,10.0
6.983333333333333,9.873365425150608,10.0
7.0,9.873365425920836,10.0
7.016666666666667,9.873365426823517,10.0
7.033333333333333,9.873365427738118,10.0
7.05,9.873365427617774,10.0
7.066666666666666,9.873365427353011,10.0
7.083333333333333,9.873366380733593,10.0
7.1,9.873366381672257,10.0
7.116666666666666,9.873366381407493,10.0
7.133333333333334,9.87336638114273,10.0
7.15,9.873366380721604,10.0
7.166666666666667,9.87336638169636,10.0
7.183333333333334,9.873366375703093,10.0
7.2,9.873366377123164,10.0
7.216666666666667,9.873366377821178,10.0
7.233333333333333,9.87336637878396,10.0
7.25,9.873366379650474,10.0
7.266666666666667,9.873366380962286,10.0
7.283333333333333,9.873366380890086,10.0
7.3,9.873366382153774,10.0
7.316666666666666,9.873366382117682,10.0
7.333333333333333,9.873366381913097,10.0
7.35,9.873366381612358,10.0
7.366666666666666,9.873366379566091,10.0
7.383333333333334,9.873366382153643,10.0
7.4,9.873366376184363,10.0
7.416666666666667,9.873366376521362,10.0
7.433333333333334,9.873366378302434,10.0
7.45,9.873366379265217,10.0
7.466666666666667,9.873366380396506,10.0
7.483333333333333,9.873366381527763,10.0
7.5,9.873366381551833,10.0
7.516666666666667,9.873366381359272,10.0
7.533333333333333,9.873366379542,10.0
7.55,9.873366382153584,10.0
7.566666666666666,9.873366380360372,10.0
7.583333333333333,9.873366383092327,10.0
7.6,9.87336637956607,10.0
7.616666666666666,9.873366381696256,10.0
7.633333333333334,9.873366380047472,10.0
7.65,9.873366380950092,10.0
7.666666666666667,9.873366380564967,10.0
7.683333333333334,9.873366381587951,10.0
7.7,9.873366381299117,10.0
7.716666666666667,9.873366380926036,10.0
7.733333333333333,9.873366380540908,10.0
7.75,9.873366381660164,10.0
7.766666666666667,9.873366381250998,10.0
7.783333333333333,9.873366380914023,10.0
7.8,9.873366376124231,10.0
7.816666666666666,9.87336637641304,10.0
7.833333333333333,9.87336637697869,10.0
7.85,9.873366377760917,10.0
7.866666666666666,9.873366378675584,10.0
7.883333333333334,9.873366379891104,10.0
7.9,9.873366381166758,10.0
7.916666666666667,9.873366381142752,10.0
7.933333333333334,9.873366380926132,10.0
7.95,9.873366380613234,10.0
7.966666666666667,9.873366381876881,10.0
7.983333333333333,9.873366381684368,10.0
8.0,9.873366376906505,10.0
8.016666666666667,9.87336542369456,10.0
8.033333333333333,9.873365424332361,10.0
8.05,9.873365425126705,10.0
8.066666666666666,9.87336542620985,10.0
8.083333333333334,9.873365427389235,10.0
8.1,9.873365427184654,10.0
8.116666666666667,9.873365428556708,10.0
8.133333333333333,9.873365428436136,10.0
8.15,9.873365428243543,10.0
8.166666666666666,9.873365428063039,10.0
8.183333333333334,9.87336542761774,10.0
8.2,9.87336542418782,10.0
8.216666666666667,9.873365426005057,10.0
8.233333333333333,9.873365426895633,10.0
8.25,9.873365428014884,10.0
8.266666666666667,9.87336638149166,10.0
8.283333333333333,9.87336637975863,10.0
8.3,9.873366382213762,10.0
8.316666666666666,9.87336638052886,10.0
8.333333333333334,9.873366383140475,10.0
8.35,9.8733663813352,10.0
8.366666666666667,9.873366380913977,10.0
8.383333333333333,9.873366380492755,10.0
8.4,9.873366377159142,10.0
8.416666666666666,9.873366377592411,10.0
8.433333333333334,9.873366378218188,10.0
8.45,9.873366380504795,10.0
8.466666666666667,9.873366381756469,10.0
8.483333333333333,9.873366380191893,10.0
8.5,9.873366382755355,10.0
8.516666666666667,9.873366381250975,10.0
8.533333333333333,9.873366380962137,10.0
8.55,9.873366380552953,10.0
8.566666666666666,9.87336638170837,10.0
8.583333333333334,9.873366381250992,10.0
8.6,9.873366376461181,10.0
8.616666666666667,9.873366376870358,10.0
8.633333333333333,9.87336637747209,10.0
8.65,9.873366378230276,10.0
8.666666666666666,9.873365425632107,10.0
8.683333333333334,9.87336542802699,10.0
8.7,9.873365426630942,10.0
8.716666666666667,9.873365427834447,10.0
8.733333333333333,9.873365427690034,10.0
8.75,9.873365427509519,10.0
8.766666666666667,9.873365427112375,10.0
8.783333333333333,9.873365428291816,10.0
8.8,9.873365428111299,10.0
8.816666666666666,9.873365426005197,10.0
8.833333333333334,9.873365426763403,10.0
8.85,9.873365427774461,10.0
8.866666666666667,9.873365427365021,10.0
8.883333333333333,9.873365427003954,10.0
8.9,9.873365428075054,10.0
8.916666666666666,9.873365427798246,10.0
8.933333333333334,9.873365427461287,10.0
8.95,9.87336542543941,10.0
8.966666666666667,9.87336542631795,10.0
8.983333333333333,9.873365429098047,10.0
9.0,9.873365427389057,10.0
9.016666666666667,9.873365422647396,10.0
9.033333333333333,9.873365422900116,10.0
9.05,9.873365425018198,10.0
9.066666666666666,9.87336542586063,10.0
9.083333333333334,9.873365427220568,10.0
